x,y,z,u,v,w,phi,theta,psi,p,q,r
0.12452829813802542,0.06297167387342123,0.5,-0.7060518957281864,0.7059708722620591,0.0,0.0,0.0,0.0,0.0,0.0,0.0
0.12405661493533246,0.06344327311488268,0.5,-0.7060854012512305,0.705937346082901,0.0,0.0,0.0,0.0,0.0,0.0,0.0
0.12342773302319222,0.0640719560215846,0.5,-0.7063346089440672,0.7060606596950914,0.0,0.0,0.0,0.0,0.0,0.0,0.0
0.12264167727851458,0.06485762311835981,0.5,-0.7064351546411188,0.7059600041911025,0.0,0.0,0.0,0.0,0.0,0.0,0.0
0.12185571482286404,0.06564291717341361,0.5,-0.7063489451196965,0.705580771902696,0.0,0.0,0.0,0.0,0.0,0.0,0.0
0.12106987674684246,0.066427713931328,0.5,-0.7058391360347767,0.7046949218013729,0.0,0.0,0.0,0.0,0.0,0.0,0.0
0.12028419413613162,0.0672118892153712,0.5,-0.7052321460703728,0.703629328715636,0.0,0.0,0.0,0.0,0.0,0.0,0.0
0.11949869807026342,0.06799531894714597,0.5,-0.7041092511982558,0.7019662544780414,0.0,0.0,0.0,0.0,0.0,0.0,0.0
0.11871341962139062,0.06877787916622222,0.5,-0.7027973560086559,0.7000332371680118,0.0,0.0,0.0,0.0,0.0,0.0,0.0
0.11792838985305756,0.069559446049751,0.5,-0.7012973113136873,0.6978320700960225,0.0,0.0,0.0,0.0,0.0,0.0,0.0
0.11714363981897152,0.07033989593205678,0.5,-0.6996100853845089,0.6953647909496264,0.0,0.0,0.0,0.0,0.0,0.0,0.0
0.11635920056177415,0.07111910532420472,0.5,-0.6977367630762349,0.6926336792709211,0.0,0.0,0.0,0.0,0.0,0.0,0.0
0.11557510311181358,0.07189695093354016,0.5,-0.6956785448330396,0.6896412536233486,0.0,0.0,0.0,0.0,0.0,0.0,0.0
0.114791378485917,0.07267330968319691,0.5,-0.6934367456007035,0.686390268478045,0.0,0.0,0.0,0.0,0.0,0.0,0.0
0.11400805768616365,0.0734480587315714,0.5,-0.6910127936538751,0.6828837108302811,0.0,0.0,0.0,0.0,0.0,0.0,0.0
0.11322517169865845,0.07422107549175974,0.5,-0.6884082293159088,0.679124796527608,0.0,0.0,0.0,0.0,0.0,0.0,0.0
0.11244275149230633,0.07499223765095434,0.5,-0.685624703592312,0.6751169663344687,0.0,0.0,0.0,0.0,0.0,0.0,0.0
0.1116608280175871,0.07576142318979713,0.5,-0.6826639767086145,0.6708638817283998,0.0,0.0,0.0,0.0,0.0,0.0,0.0
0.11087943220533118,0.0765285104016866,0.5,-0.679527916562676,0.6663694204421204,0.0,0.0,0.0,0.0,0.0,0.0,0.0
0.11009859496549612,0.07729337791203499,0.5,-0.6762184970819585,0.6616376717468899,0.0,0.0,0.0,0.0,0.0,0.0,0.0
0.10931834718594376,0.07805590469747327,0.5,-0.6727377964993404,0.6566729314954449,0.0,0.0,0.0,0.0,0.0,0.0,0.0
0.10853871973121845,0.07881597010500035,0.5,-0.6690879955390691,0.6514796969215122,0.0,0.0,0.0,0.0,0.0,0.0,0.0
0.10775974344132615,0.07957345387107378,0.5,-0.6652713755231262,0.6460626612114275,0.0,0.0,0.0,0.0,0.0,0.0,0.0
0.10698144913051444,0.08032823614063878,0.5,-0.6612903163945423,0.6404267078500391,0.0,0.0,0.0,0.0,0.0,0.0,0.0
0.1062038675860536,0.08108019748609256,0.5,-0.6571472946615259,0.6345769047507331,0.0,0.0,0.0,0.0,0.0,0.0,0.0
0.10542702956701878,0.08182921892618134,0.5,-0.6528448812630439,0.6285184981762185,0.0,0.0,0.0,0.0,0.0,0.0,0.0
0.10465096580307318,0.08257518194482623,0.5,-0.64838573936167,0.6222569064620498,0.0,0.0,0.0,0.0,0.0,0.0,0.0
0.10387570699325256,0.083317968509876,0.5,-0.6437726220626866,0.6157977135484342,0.0,0.0,0.0,0.0,0.0,0.0,0.0
0.10310128380475078,0.08405746109178283,0.5,-0.639008370061978,0.6091466623294208,0.0,0.0,0.0,0.0,0.0,0.0,0.0
0.10232772687170674,0.084793542682199,0.5,-0.6340959092268977,0.6023096478304705,0.0,0.0,0.0,0.0,0.0,0.0,0.0
0.10155506679399255,0.08552609681249071,0.5,-0.6290382481122039,0.5952927102232966,0.0,0.0,0.0,0.0,0.0,0.0,0.0
0.10078333413600313,0.08625500757216674,0.5,-0.623838475410945,0.5881020276851371,0.0,0.0,0.0,0.0,0.0,0.0,0.0
0.10001255942544704,0.08698015962721867,0.5,-0.6184997573484634,0.5807439091175297,0.0,0.0,0.0,0.0,0.0,0.0,0.0
0.09924277315213906,0.08770143823836998,0.5,-0.6130253350138242,0.5732247867266157,0.0,0.0,0.0,0.0,0.0,0.0,0.0
0.09847400576679391,0.08841872927923101,0.5,-0.6074185216416631,0.5655512084848406,0.0,0.0,0.0,0.0,0.0,0.0,0.0
0.09770628767982187,0.08913191925435689,0.5,-0.6016826998392091,0.5577298304767332,0.0,0.0,0.0,0.0,0.0,0.0,0.0
0.09693964926012572,0.08984089531720568,0.5,-0.5958213187643131,0.5497674091420218,0.0,0.0,0.0,0.0,0.0,0.0,0.0
0.09617412083389938,0.09054554528799398,0.5,-0.5898378912573302,0.5416707934265087,0.0,0.0,0.0,0.0,0.0,0.0,0.0
0.09540973268342846,0.09124575767144665,0.5,-0.5837359909310937,0.5334469168526326,0.0,0.0,0.0,0.0,0.0,0.0,0.0
0.0946465150458922,0.09194142167443871,0.5,-0.5775192492200155,0.5251027895185023,0.0,0.0,0.0,0.0,0.0,0.0,0.0
0.09388449811216745,0.09263242722352577,0.5,-0.5711913523907457,0.5166454900356865,0.0,0.0,0.0,0.0,0.0,0.0,0.0
0.09312371202563441,0.0933186649823608,0.5,-0.5647560385223012,0.5080821574209936,0.0,0.0,0.0,0.0,0.0,0.0,0.0
0.09236418688098418,0.09400002636899404,0.5,-0.5582170944531373,0.4994199829479222,0.0,0.0,0.0,0.0,0.0,0.0,0.0
0.09160595272302835,0.09467640357305387,0.5,-0.5515783527011995,0.49066620197130145,0.0,0.0,0.0,0.0,0.0,0.0,0.0
0.09084903954551042,0.09534768957280536,0.5,-0.544843688361237,0.4818280857369189,0.0,0.0,0.0,0.0,0.0,0.0,0.0
0.0900934772899195,0.09601377815208398,0.5,-0.5380170159812413,0.47291293318578087,0.0,0.0,0.0,0.0,0.0,0.0,0.0
0.08933929584430568,0.09667456391710214,0.5,-0.5311022864210478,0.4639280627635783,0.0,0.0,0.0,0.0,0.0,0.0,0.0
0.08858652504209792,0.0973299423131253,0.5,-0.524103483697629,0.4548808042472722,0.0,0.0,0.0,0.0,0.0,0.0,0.0
0.08783519466092382,0.09797980964101549,0.5,-0.517024621821871,0.4457784906007048,0.0,0.0,0.0,0.0,0.0,0.0,0.0
0.08708533442143174,0.09862406307363938,0.5,-0.5098697416265721,0.4366284498666364,0.0,0.0,0.0,0.0,0.0,0.0,0.0
0.08633697398611503,0.0992626006721385,0.5,-0.5026429075935159,0.4274379971096791,0.0,0.0,0.0,0.0,0.0,0.0,0.0
0.0855901429581389,0.09989532140205862,0.5,-0.4953482046804326,0.41821442641815,0.0,0.0,0.0,0.0,0.0,0.0,0.0
0.0848448708801691,0.10052212514933638,0.5,-0.48798973515341143,0.4089650029769134,0.0,0.0,0.0,0.0,0.0,0.0,0.0
0.08410118723320349,0.10114291273614007,0.5,-0.4805716154269445,0.3996969552201661,0.0,0.0,0.0,0.0,0.0,0.0,0.0
0.08335912143540578,0.10175758593656234,0.5,-0.4730979729168348,0.39041746707552366,0.0,0.0,0.0,0.0,0.0,0.0,0.0
0.0826187028409418,0.10236604749216226,0.5,-0.46557294290868745,0.3811336703083892,0.0,0.0,0.0,0.0,0.0,0.0,0.0
0.08187996073881845,0.1029682011273543,0.5,-0.4580006654468592,0.371852636977214,0.0,0.0,0.0,0.0,0.0,0.0,0.0
0.08114292435172492,0.10356395156464193,0.5,-0.4503852822474669,0.3625813720088735,0.0,0.0,0.0,0.0,0.0,0.0,0.0
0.08040762283487683,0.10415320453969297,0.5,-0.4427309336389047,0.35332680590300325,0.0,0.0,0.0,0.0,0.0,0.0,0.0
0.07967408527486296,0.10473586681625505,0.5,-0.4350417555346246,0.34409578757495207,0.0,0.0,0.0,0.0,0.0,0.0,0.0
0.07894234068849457,0.10531184620090797,0.5,-0.4273218764421892,0.33489507734602914,0.0,0.0,0.0,0.0,0.0,0.0,0.0
0.07821241802165763,0.10588105155765151,0.5,-0.4195754145122078,0.32573134008908805,0.0,0.0,0.0,0.0,0.0,0.0,0.0
0.07748434614816774,0.10644339282232552,0.5,-0.41180647463169423,0.31661113853788514,0.0,0.0,0.0,0.0,0.0,0.0,0.0
0.07675815386862803,0.10699878101686064,0.5,-0.4040191455660277,0.30754092676798495,0.0,0.0,0.0,0.0,0.0,0.0,0.0
0.07603386990928986,0.10754712826335702,0.5,-0.39621749715363574,0.2985270438565222,0.0,0.0,0.0,0.0,0.0,0.0,0.0
0.07531152292091643,0.10808834779798923,0.5,-0.3884055775573732,0.28957570772763586,0.0,0.0,0.0,0.0,0.0,0.0,0.0
0.07459114147764954,0.10862235398473456,0.5,-0.38058741057755624,0.2806930091906582,0.0,0.0,0.0,0.0,0.0,0.0,0.0
0.07387275407587918,0.10914906232892313,0.5,-0.3727669930299626,0.27188490617648436,0.0,0.0,0.0,0.0,0.0,0.0,0.0
0.07315638913311624,0.10966838949060723,0.5,-0.3649482921940364,0.26315721817849624,0.0,0.0,0.0,0.0,0.0,0.0,0.0
0.07244207498686862,0.11018025329774803,0.5,-0.3571352433347609,0.25451562090255503,0.0,0.0,0.0,0.0,0.0,0.0,0.0
0.07172983989352001,0.11068457275921754,0.5,-0.3493317473031619,0.24596564113122996,0.0,0.0,0.0,0.0,0.0,0.0,0.0
0.07101971202721226,0.11118126807761367,0.5,-0.3415416682190405,0.23751265180585068,0.0,0.0,0.0,0.0,0.0,0.0,0.0
0.07031171947873091,0.11167026066188626,0.5,-0.33376883124073464,0.22916186733027688,0.0,0.0,0.0,0.0,0.0,0.0,0.0
0.06960589025439397,0.11215147313977261,0.5,-0.32601702042581887,0.22091833909906936,0.0,0.0,0.0,0.0,0.0,0.0,0.0
0.06890225227494397,0.11262482937003973,0.5,-0.3182899766868159,0.21278695125229086,0.0,0.0,0.0,0.0,0.0,0.0,0.0
0.06820083337444367,0.11309025445453208,0.5,-0.31059139584610423,0.20477241665858262,0.0,0.0,0.0,0.0,0.0,0.0,0.0
0.06750166129917484,0.1135476747500226,0.5,-0.30292492679383687,0.1968792731273052,0.0,0.0,0.0,0.0,0.0,0.0,0.0
0.06680476370654084,0.113997017879865,0.5,-0.2952941697528582,0.18911187985001274,0.0,0.0,0.0,0.0,0.0,0.0,0.0
0.06611016816397244,0.1144382127454459,0.5,-0.28770267465390575,0.181474414070387,0.0,0.0,0.0,0.0,0.0,0.0,0.0
0.06541790214783741,0.1148711895374345,0.5,-0.2801539396250862,0.17397086798156086,0.0,0.0,0.0,0.0,0.0,0.0,0.0
0.06472799304235359,0.11529587974682842,0.5,-0.2726514095982391,0.16660504584823166,0.0,0.0,0.0,0.0,0.0,0.0,0.0
0.06404046813850561,0.11571221617579378,0.5,-0.2651984750356379,0.1593805613507764,0.0,0.0,0.0,0.0,0.0,0.0,0.0
0.06335535463296546,0.11612013294829757,0.5,-0.2577984707791806,0.15230083514714501,0.0,0.0,0.0,0.0,0.0,0.0,0.0
0.0626726796270165,0.11651956552053139,0.5,-0.25045467502487523,0.14536909264803885,0.0,0.0,0.0,0.0,0.0,0.0,0.0
0.06199247012548151,0.11691045069112382,0.5,-0.2431703084235366,0.13858836199909016,0.0,0.0,0.0,0.0,0.0,0.0,0.0
0.061314753035654396,0.11729272661114074,0.5,-0.23594853330990495,0.13196147226392158,0.0,0.0,0.0,0.0,0.0,0.0,0.0
0.06063955516623588,0.11766633279387154,0.5,-0.22879245306012636,0.125491051800025,0.0,0.0,0.0,0.0,0.0,0.0,0.0
0.05996690322627289,0.11803121012439985,0.5,-0.22170511157789982,0.1191795268191056,0.0,0.0,0.0,0.0,0.0,0.0,0.0
0.05929682382410217,0.11838730086895709,0.5,-0.2146894929082886,0.11302912012225237,0.0,0.0,0.0,0.0,0.0,0.0,0.0
0.058629343466297605,0.1187345486840576,0.5,-0.2077485209778175,0.10704184999970348,0.0,0.0,0.0,0.0,0.0,0.0,0.0
0.05796448855662177,0.11907289862541379,0.5,-0.20088505945786156,0.10121952928371822,0.0,0.0,0.0,0.0,0.0,0.0,0.0
0.057302285394981424,0.11940229715662977,0.5,-0.19410191174771507,0.09556376454250425,0.0,0.0,0.0,0.0,0.0,0.0,0.0
0.05664276017638716,0.1197226921576724,0.5,-0.18740182107237585,0.09007595540227803,0.0,0.0,0.0,0.0,0.0,0.0,0.0
0.05598593898991723,0.12003403293311807,0.5,-0.18078747068851014,0.08475729398374482,0.0,0.0,0.0,0.0,0.0,0.0,0.0
0.05533184781768548,0.12033627022017411,0.5,-0.1742614841909617,0.07960876443887277,0.0,0.0,0.0,0.0,0.0,0.0,0.0
0.054680512533813626,0.12062935619647358,0.5,-0.1678264259100666,0.0746311425731169,0.0,0.0,0.0,0.0,0.0,0.0,0.0
0.05403195890340766,0.12091324448764215,0.5,-0.16148480138871033,0.06982499553813681,0.0,0.0,0.0,0.0,0.0,0.0,0.0
0.053386212581538736,0.1211878901746357,0.5,-0.15523905792571996,0.06519068157972854,0.0,0.0,0.0,0.0,0.0,0.0,0.0
0.05274329911222828,0.12145324980084783,0.5,-0.14909158517051802,0.06072834982590762,0.0,0.0,0.0,0.0,0.0,0.0,0.0
0.05210324392743756,0.12170928137898594,0.5,-0.14304471575142572,0.05643794010024038,0.0,0.0,0.0,0.0,0.0,0.0,0.0
0.05146607234606159,0.12195594439771475,0.5,-0.13710072591797354,0.052319182746260406,0.0,0.0,0.0,0.0,0.0,0.0,0.0
0.050831809572927704,0.12219319982806628,0.5,-0.13126183617496587,0.048371598449632694,0.0,0.0,0.0,0.0,0.0,0.0,0.0
0.050200480697798415,0.12242101012961543,0.5,-0.12553021188384794,0.04459449804613135,0.0,0.0,0.0,0.0,0.0,0.0,0.0
0.049572110694378974,0.12263933925641982,0.5,-0.11990796380410158,0.04098698230507609,0.0,0.0,0.0,0.0,0.0,0.0,0.0
0.04894672441932948,0.1228481526627233,0.5,-0.11439714854516969,0.03754794168015585,0.0,0.0,0.0,0.0,0.0,0.0,0.0
0.048324346611281585,0.1230474173084221,0.5,-0.10899976889691491,0.03427605602216705,0.0,0.0,0.0,0.0,0.0,0.0,0.0
0.04770500188985996,0.12323710166429262,0.5,-0.1037177740041999,0.031169794251333847,0.0,0.0,0.0,0.0,0.0,0.0,0.0
0.047088714754708313,0.1234171757169803,0.5,-0.09855305934921528,0.028227413990671118,0.0,0.0,0.0,0.0,0.0,0.0,0.0
0.04647550958452037,0.12358761097374846,0.5,-0.09350746650330793,0.02544696116612045,0.0,0.0,0.0,0.0,0.0,0.0,0.0
0.045865410636075396,0.1237483804669868,0.5,-0.08858278260855254,0.022826269584058635,0.0,0.0,0.0,0.0,0.0,0.0,0.0
0.04525844204327874,0.1238994587584783,0.5,-0.0837807395484039,0.020362960502256333,0.0,0.0,0.0,0.0,0.0,0.0,0.0
0.04465462781620713,0.1240408219434243,0.5,-0.07910301276629127,0.018054442216363223,0.0,0.0,0.0,0.0,0.0,0.0,0.0
0.044053991840158936,0.12417244765422691,0.5,-0.07455121969150356,0.015897909690547087,0.0,0.0,0.0,0.0,0.0,0.0,0.0
0.04345655787470924,0.12429431506402824,0.5,-0.07012691773259687,0.013890344267822794,0.0,0.0,0.0,0.0,0.0,0.0,0.0
0.0428623495527701,0.12440640489000568,0.5,-0.06583160180095411,0.012028513502991136,0.0,0.0,0.0,0.0,0.0,0.0,0.0
0.04227139037965555,0.12450869939642306,0.5,-0.06166670133006904,0.01030897116859682,0.0,0.0,0.0,0.0,0.0,0.0,0.0
0.041683703732151925,0.12460118239743688,0.5,-0.05763357676074846,0.008728057491989257,0.0,0.0,0.0,0.0,0.0,0.0,0.0
0.04109931285759305,0.12468383925965744,0.5,-0.05373351546779746,0.007281899689004659,0.0,0.0,0.0,0.0,0.0,0.0,0.0
0.04051824087294065,0.12475665690446419,0.5,-0.04996772711103663,0.005966412867030667,0.0,0.0,0.0,0.0,0.0,0.0,0.0
0.03994051076386997,0.12481962381007514,0.5,-0.04633733840172982,0.004777301376758487,0.0,0.0,0.0,0.0,0.0,0.0,0.0
0.03936614538386041,0.12487273001336993,0.5,-0.04284338728545718,0.0037100606976924085,0.0,0.0,0.0,0.0,0.0,0.0,0.0
0.03879516745329162,0.12491596711146634,0.5,-0.03948681655350067,0.0027599799470490846,0.0,0.0,0.0,0.0,0.0,0.0,0.0
0.03822759955854462,0.1249493282630497,0.5,-0.03626846690738395,0.0019221451048149955,0.0,0.0,0.0,0.0,0.0,0.0,0.0
0.03766346415110848,0.12497280818945555,0.5,-0.03318906951472585,0.0011914430490681952,0.0,0.0,0.0,0.0,0.0,0.0,0.0
0.03710278354669205,0.12498640317550479,0.5,-0.030249238108957247,0.0005625664949376739,0.0,0.0,0.0,0.0,0.0,0.0,0.0
0.03654557992434136,0.1249901110700915,0.5,-0.02744946070058836,3.001992748423606e-05,0.0,0.0,0.0,0.0,0.0,0.0,0.0
0.03599187532556212,0.12498393128652335,0.5,-0.02479009098292922,-0.00041187338689547203,0.0,0.0,0.0,0.0,0.0,0.0,0.0
0.03544169165344797,0.12496786480261446,0.5,-0.02227133953038686,-0.0007689632344043485,0.0,0.0,0.0,0.0,0.0,0.0,0.0
0.03489505067181392,0.1249419141605306,0.5,-0.019893264901852184,-0.0010472630683207907,0.0,0.0,0.0,0.0,0.0,0.0,0.0
0.034351974004335525,0.12490608346638699,0.5,-0.01765576477519172,-0.0012529393534619656,0.0,0.0,0.0,0.0,0.0,0.0,0.0
0.03381248313369344,0.1248603783895986,0.5,-0.015558567250361994,-0.0013922996071282301,0.0,0.0,0.0,0.0,0.0,0.0,0.0
0.033276599400723694,0.12480480616198311,0.5,-0.013601222468308747,-0.0014717791226856248,0.0,0.0,0.0,0.0,0.0,0.0,0.0
0.03274434400357343,0.12473937557661663,0.5,-0.011783094699378428,-0.001497926383880795,0.0,0.0,0.0,0.0,0.0,0.0,0.0
0.03221573799686239,0.1246640969864423,0.5,-0.010103355058644535,-0.001477387201771199,0.0,0.0,0.0,0.0,0.0,0.0,0.0
0.03169080229085011,0.12457898230263234,0.5,-0.008560975005299945,-0.0014168876311965884,0.0,0.0,0.0,0.0,0.0,0.0,0.0
0.031169557650608637,0.12448404499270314,0.5,-0.0071547207794219895,-0.0013232157494023936,0.0,0.0,0.0,0.0,0.0,0.0,0.0
0.03065202469520125,0.1243793000783846,0.5,-0.005883148921287878,-0.0012032024049719993,0.0,0.0,0.0,0.0,0.0,0.0,0.0
0.030138223896866725,0.124264764133243,0.5,-0.004744603006203978,-0.001063701069832349,0.0,0.0,0.0,0.0,0.0,0.0,0.0
0.02962817558020957,0.12414045528005883,0.5,-0.0037372117117040545,-0.0009115669499912979,0.0,0.0,0.0,0.0,0.0,0.0,0.0
0.029121899921396008,0.12400639318795907,0.5,-0.00285888831403682,-0.0007536355309685323,0.0,0.0,0.0,0.0,0.0,0.0,0.0
0.028619416947355876,0.12386259906930515,0.5,-0.0021073316878000526,-0.0005967007509298088,0.0,0.0,0.0,0.0,0.0,0.0,0.0
0.02812074653499038,0.12370909567633642,0.5,-0.0014800288566719979,-0.0004474930075574067,0.0,0.0,0.0,0.0,0.0,0.0,0.0
0.027625908410385865,0.1235459072975702,0.5,-0.0009742591156078676,-0.00031265721328615375,0.0,0.0,0.0,0.0,0.0,0.0,0.0
0.027134922148033463,0.12337305975395867,0.5,-0.0005870997158404547,-0.0001987311171627934,0.0,0.0,0.0,0.0,0.0,0.0,0.0
0.0266478071700548,0.12319058039480318,0.5,-0.0003154330750974056,-0.00011212411021959254,0.0,0.0,0.0,0.0,0.0,0.0,0.0
0.026164582745433717,0.12299849809342694,0.5,-0.00015595544686483975,-5.909672469858863e-05,0.0,0.0,0.0,0.0,0.0,0.0,0.0
0.025685267989254003,0.1227968432426064,0.5,-0.00010518695583417478,-4.574102609773497e-05,0.0,0.0,0.0,0.0,0.0,0.0,0.0
0.025209881861943284,0.12258564774976223,0.5,-0.00015948288200665024,-7.796208097157287e-05,0.0,0.0,0.0,0.0,0.0,0.0,0.0
0.024738443168522993,0.12236494503191074,0.5,-0.00031504605473959754,-0.000161460663501804,0.0,0.0,0.0,0.0,0.0,0.0,0.0
0.024270970557864494,0.12213477001037638,0.5,-0.0005679402003178894,-0.00030171734051987414,0.0,0.0,0.0,0.0,0.0,0.0,0.0
0.023807482521951348,0.12189515910526615,0.5,-0.0009141040731635559,-0.0005039780487956818,0.0,0.0,0.0,0.0,0.0,0.0,0.0
0.023347997395147882,0.12164615022970696,0.5,-0.0013493661918198745,-0.0007732412508853403,0.0,0.0,0.0,0.0,0.0,0.0,0.0
0.022892533353473882,0.12138778278384672,0.5,-0.001869459996374348,-0.0011142467274610395,0.0,0.0,0.0,0.0,0.0,0.0,0.0
0.022441108413885604,0.12112009764862017,0.5,-0.0024700392440211603,-0.001531466035780679,0.0,0.0,0.0,0.0,0.0,0.0,0.0
0.021993740433563086,0.12084313717928025,0.5,-0.0031466934636659736,-0.0020290946365092823,0.0,0.0,0.0,0.0,0.0,0.0,0.0
0.021550447109203758,0.1205569451986965,0.5,-0.003894963298702707,-0.0026110456653727987,0.0,0.0,0.0,0.0,0.0,0.0,0.0
0.02111124597632241,0.1202615669904209,0.5,-0.004710355578530709,-0.003280945302554746,0.0,0.0,0.0,0.0,0.0,0.0,0.0
0.020676154408557506,0.11995704929152284,0.5,-0.00558835797378069,-0.0040421296719960215,0.0,0.0,0.0,0.0,0.0,0.0,0.0
0.020245189616983995,0.11964344028519404,0.5,-0.00652445310670536,-0.004897643185087521,0.0,0.0,0.0,0.0,0.0,0.0,0.0
0.019818368649432396,0.11932078959312446,0.5,-0.00751413200630852,-0.005850238228951231,0.0,0.0,0.0,0.0,0.0,0.0,0.0
0.019395708389814522,0.11898914826765097,0.5,-0.008552906816746312,-0.0069023760886176375,0.0,0.0,0.0,0.0,0.0,0.0,0.0
0.01897722555745552,0.11864856878367934,0.5,-0.009636322686797465,-0.008056228984908096,0.0,0.0,0.0,0.0,0.0,0.0,0.0
0.018562936706432557,0.11829910503038121,0.5,-0.01075996878734373,-0.009313683105693464,0.0,0.0,0.0,0.0,0.0,0.0,0.0
0.018152858224919938,0.11794081230266745,0.5,-0.011919488421921299,-0.010676342506851802,0.0,0.0,0.0,0.0,0.0,0.0,0.0
0.017747006334540873,0.11757374729243883,0.5,-0.013110588212756768,-0.01214553376091352,0.0,0.0,0.0,0.0,0.0,0.0,0.0
0.01734539708972576,0.11719796807961586,0.5,-0.01432904636025513,-0.013722311235114722,0.0,0.0,0.0,0.0,0.0,0.0,0.0
0.016948046377077135,0.11681353412294887,0.5,-0.015570719988021403,-0.015407462886508096,0.0,0.0,0.0,0.0,0.0,0.0,0.0
0.01655496991474123,0.11642050625061004,0.5,-0.016831551597582053,-0.017201516469114858,0.0,0.0,0.0,0.0,0.0,0.0,0.0
0.016166183251786204,0.11601894665056867,0.5,-0.01810757466734006,-0.01910474605678545,0.0,0.0,0.0,0.0,0.0,0.0,0.0
0.01578170176758708,0.11560891886075125,0.5,-0.01939491843850397,-0.021117178794729807,0.0,0.0,0.0,0.0,0.0,0.0,0.0
0.01540154067121734,0.11519048775898807,0.5,-0.020689811937371155,-0.0232386018027112,0.0,0.0,0.0,0.0,0.0,0.0,0.0
0.015025715000847352,0.11476371955274772,0.5,-0.02198858728790054,-0.02546856916278838,0.0,0.0,0.0,0.0,0.0,0.0,0.0
0.014654239623149427,0.11432868176866115,0.5,-0.023287682371712567,-0.027806408934566845,0.0,0.0,0.0,0.0,0.0,0.0,0.0
0.01428712923270981,0.11388544324183716,0.5,-0.024583642894219306,-0.030251230150496633,0.0,0.0,0.0,0.0,0.0,0.0,0.0
0.013924398351447318,0.11343407410497074,0.5,-0.025873123915918658,-0.032801929752901304,0.0,0.0,0.0,0.0,0.0,0.0,0.0
0.013566061328038979,0.11297464577724611,0.5,-0.027152890907099006,-0.03545719944292746,0.0,0.0,0.0,0.0,0.0,0.0,0.0
