x,y,z,u,v,w,phi,theta,psi,p,q,r
0.24023534269199004,0.00018579686209744013,0.0,0.0,0.0,0.0,0.0,0.0,0.0,0.0,0.0,0.0
0.24060693641618497,0.00037159372419488026,0.0,0.0,0.0,0.0,0.0,0.0,0.0,0.0,0.0,0.0
0.24116432700247728,0.0007431874483897605,0.0,9.779158301894979e-17,5.588090458225557e-17,0.0,0.0,0.0,0.0,0.0,0.0,0.0
0.24190751445086708,0.0011147811725846408,0.0,2.6899182120582076e-16,1.4943990066989793e-16,0.0,0.0,0.0,0.0,0.0,0.0,0.0
0.24283649876135427,0.0016721717588769611,0.0,5.410677127176194e-16,2.705338563588106e-16,0.0,0.0,0.0,0.0,0.0,0.0,0.0
0.24413707679603636,0.002229562345169281,0.0,1.7353275624723212e-15,7.592058085816458e-16,0.0,0.0,0.0,0.0,0.0,0.0,0.0
0.2458092485549133,0.0029727497935590416,0.0,1.7353275624722705e-15,7.592058085816311e-16,0.0,0.0,0.0,0.0,0.0,0.0,0.0
0.24710982658959535,0.0035301403798513624,0.0,8.661153180138409e-16,4.3305765900692303e-16,0.0,0.0,0.0,0.0,0.0,0.0,0.0
0.24841040462427744,0.004273327828241123,0.0,8.661153180138429e-16,4.3305765900691914e-16,0.0,0.0,0.0,0.0,0.0,0.0,0.0
0.24971098265895952,0.004830718414533443,0.0,8.661153180138429e-16,4.3305765900691914e-16,0.0,0.0,0.0,0.0,0.0,0.0,0.0
0.2510115606936416,0.005573905862923203,0.0,2.1704629583847477e-07,1.2402645476484477e-07,0.0,0.0,0.0,0.0,0.0,0.0,0.0
0.25231213872832364,0.0063170933113129634,0.0,2.1704629583847583e-07,1.240264547648428e-07,0.0,0.0,0.0,0.0,0.0,0.0,0.0
0.2536127167630058,0.007060280759702725,0.0,2.1704629583847702e-07,1.2402645476484082e-07,0.0,0.0,0.0,0.0,0.0,0.0,0.0
0.2549132947976879,0.007803468208092485,0.0,2.1704629583847588e-07,1.2402645476484275e-07,0.0,0.0,0.0,0.0,0.0,0.0,0.0
0.25621387283236996,0.008546655656482246,0.0,2.1704629583847588e-07,1.2402645476484275e-07,0.0,0.0,0.0,0.0,0.0,0.0,0.0
0.25751445086705205,0.009289843104872006,0.0,2.170462958384758e-07,1.2402645476484286e-07,0.0,0.0,0.0,0.0,0.0,0.0,0.0
0.25881502890173413,0.010033030553261768,0.0,2.1704629583847472e-07,1.2402645476484487e-07,0.0,0.0,0.0,0.0,0.0,0.0,0.0
0.26011560693641617,0.010776218001651528,0.0,8.661153180137445e-16,4.330576590068792e-16,0.0,0.0,0.0,0.0,0.0,0.0,0.0
0.26141618497109825,0.011333608587943848,0.0,6.150804910840801e-16,3.311971875068139e-16,0.0,0.0,0.0,0.0,0.0,0.0,0.0
0.2625309661436829,0.012076796036333609,0.0,5.971895587080653e-16,3.483605759130432e-16,0.0,0.0,0.0,0.0,0.0,0.0,0.0
0.2636457473162675,0.012634186622625927,0.0,5.971895587080653e-16,3.483605759130432e-16,0.0,0.0,0.0,0.0,0.0,0.0,0.0
0.2647605284888521,0.013377374071015687,0.0,5.971895587080688e-16,3.4836057591303713e-16,0.0,0.0,0.0,0.0,0.0,0.0,0.0
0.2658753096614368,0.013934764657308007,0.0,5.97189558708164e-16,3.4836057591308426e-16,0.0,0.0,0.0,0.0,0.0,0.0,0.0
0.2669900908340215,0.01467795210569777,0.0,5.97189558708164e-16,3.4836057591308426e-16,0.0,0.0,0.0,0.0,0.0,0.0,0.0
0.26810487200660615,0.01523534269199009,0.0,4.077450022232119e-16,2.594740923238624e-16,0.0,0.0,0.0,0.0,0.0,0.0,0.0
0.2690338563170933,0.015978530140379848,0.0,4.077450022232117e-16,2.5947409232386265e-16,0.0,0.0,0.0,0.0,0.0,0.0,0.0
0.270148637489678,0.01653592072667217,0.0,5.971895587080685e-16,3.483605759130378e-16,0.0,0.0,0.0,0.0,0.0,0.0,0.0
0.2712634186622626,0.01727910817506193,0.0,5.971895587080647e-16,3.483605759130443e-16,0.0,0.0,0.0,0.0,0.0,0.0,0.0
0.27237819983484723,0.017836498761354253,0.0,4.0774500222320856e-16,2.594740923238677e-16,0.0,0.0,0.0,0.0,0.0,0.0,0.0
0.2733071841453344,0.018579686209744012,0.0,3.8724004265249825e-16,2.710680298567531e-16,0.0,0.0,0.0,0.0,0.0,0.0,0.0
0.2742361684558216,0.019137076796036333,0.0,2.5095822146561764e-16,1.9518972780659138e-16,0.0,0.0,0.0,0.0,0.0,0.0,0.0
0.27497935590421135,0.019880264244426092,0.0,2.5095822146561764e-16,1.9518972780659138e-16,0.0,0.0,0.0,0.0,0.0,0.0,0.0
0.27590834021469857,0.020437654830718414,0.0,2.1435344561186255e-07,1.286120673671161e-07,0.0,0.0,0.0,0.0,0.0,0.0,0.0
0.2768373245251858,0.020995045417010735,0.0,2.8984486492881724e-16,1.932299099525388e-16,0.0,0.0,0.0,0.0,0.0,0.0,0.0
0.2775805119735756,0.021552436003303057,0.0,,,,0.0,0.0,0.0,0.0,0.0,0.0
0.27832369942196533,0.02210982658959538,0.0,1.999784733715227e-07,1.499838550286448e-07,0.0,0.0,0.0,0.0,0.0,0.0,0.0
0.2790668868703551,0.0226672171758877,0.0,1.999784733715227e-07,1.499838550286448e-07,0.0,0.0,0.0,0.0,0.0,0.0,0.0
0.27981007431874483,0.023224607762180022,0.0,2.898448649287705e-16,1.9322990995251346e-16,0.0,0.0,0.0,0.0,0.0,0.0,0.0
0.28073905862923204,0.02378199834847234,0.0,2.143534456118627e-07,1.286120673671158e-07,0.0,0.0,0.0,0.0,0.0,0.0,0.0
0.28166804293971925,0.02433938893476466,0.0,2.5095822146561764e-16,1.9518972780659138e-16,0.0,0.0,0.0,0.0,0.0,0.0,0.0
0.282411230388109,0.02508257638315442,0.0,2.509582214656179e-16,1.9518972780659103e-16,0.0,0.0,0.0,0.0,0.0,0.0,0.0
0.2833402146985962,0.02563996696944674,0.0,3.872400426524985e-16,2.7106802985675257e-16,0.0,0.0,0.0,0.0,0.0,0.0,0.0
0.2842691990090834,0.026383154417836497,0.0,5.810971781062807e-16,4.226161295318522e-16,0.0,0.0,0.0,0.0,0.0,0.0,0.0
0.285383980181668,0.027126341866226256,0.0,7.098036936820285e-16,5.32352770261517e-16,0.0,0.0,0.0,0.0,0.0,0.0,0.0
0.2864987613542527,0.02805532617671346,0.0,7.098036936820285e-16,5.32352770261517e-16,0.0,0.0,0.0,0.0,0.0,0.0,0.0
0.2876135425268373,0.028798513625103217,0.0,4.774292319735702e-16,3.906239170692851e-16,0.0,0.0,0.0,0.0,0.0,0.0,0.0
0.2885425268373245,0.029727497935590416,0.0,4.774292319735751e-16,3.906239170692793e-16,0.0,0.0,0.0,0.0,0.0,0.0,0.0
0.2896573080099092,0.03047068538398018,0.0,7.098036936819438e-16,5.323527702614535e-16,0.0,0.0,0.0,0.0,0.0,0.0,0.0
0.2907720891824938,0.03139966969446738,0.0,1.92042085784106e-07,1.600350714867574e-07,0.0,0.0,0.0,0.0,0.0,0.0,0.0
0.29188687035507843,0.03232865400495458,0.0,1.9204208578410767e-07,1.600350714867554e-07,0.0,0.0,0.0,0.0,0.0,0.0,0.0
0.2930016515276631,0.03325763831544178,0.0,1.9204208578410767e-07,1.600350714867554e-07,0.0,0.0,0.0,0.0,0.0,0.0,0.0
0.29411643270024773,0.03418662262592898,0.0,8.496260792657281e-16,7.788239059935805e-16,0.0,0.0,0.0,0.0,0.0,0.0,0.0
0.2952312138728324,0.03530140379851363,0.0,1.1011744295646597e-15,1.0164687042135392e-15,0.0,0.0,0.0,0.0,0.0,0.0,0.0
0.29653179190751444,0.03641618497109827,0.0,1.3295314530502704e-15,1.2345649206895544e-15,0.0,0.0,0.0,0.0,0.0,0.0,0.0
0.29783236994219653,0.03771676300578035,0.0,1.7676708465782902e-07,1.7676708465783233e-07,0.0,0.0,0.0,0.0,0.0,0.0,0.0
0.29913294797687856,0.039017341040462436,0.0,,,,0.0,0.0,0.0,0.0,0.0,0.0
0.30043352601156065,0.0403179190751445,0.0,1.23456492068972e-15,1.3295314530504055e-15,0.0,0.0,0.0,0.0,0.0,0.0,0.0
0.3015483071841454,0.04161849710982658,0.0,1.626883458330141e-07,1.8980307013851526e-07,0.0,0.0,0.0,0.0,0.0,0.0,0.0
0.30266308835672995,0.04291907514450867,0.0,1.6268834583301197e-07,1.8980307013851703e-07,0.0,0.0,0.0,0.0,0.0,0.0,0.0
0.3037778695293146,0.04421965317919074,0.0,8.994613565146137e-16,1.1447689992003893e-15,0.0,0.0,0.0,0.0,0.0,0.0,0.0
0.30470685383980184,0.04552023121387283,0.0,7.578021937196193e-16,9.851428518354955e-16,0.0,0.0,0.0,0.0,0.0,0.0,0.0
0.30563583815028905,0.046635012386457474,0.0,5.323527702614556e-16,7.0980369368194225e-16,0.0,0.0,0.0,0.0,0.0,0.0,0.0
0.3063790255986788,0.04774979355904212,0.0,1.3866469936204546e-07,2.0799704904307207e-07,0.0,0.0,0.0,0.0,0.0,0.0,0.0
0.30712221304706855,0.04886457473162676,0.0,1.3866469936204578e-07,2.079970490430719e-07,0.0,0.0,0.0,0.0,0.0,0.0,0.0
0.3078654004954583,0.049979355904211396,0.0,1.3866469936204578e-07,2.079970490430719e-07,0.0,0.0,0.0,0.0,0.0,0.0,0.0
0.30860858794384805,0.05109413707679604,0.0,3.4836057591309343e-16,5.971895587081585e-16,0.0,0.0,0.0,0.0,0.0,0.0,0.0
0.3091659785301404,0.05220891824938068,0.0,3.4836057591308397e-16,5.971895587081641e-16,0.0,0.0,0.0,0.0,0.0,0.0,0.0
0.3099091659785301,0.05332369942196531,0.0,3.3119718750685446e-16,6.150804910841784e-16,0.0,0.0,0.0,0.0,0.0,0.0,0.0
0.3104665565648224,0.05462427745664739,0.0,4.3305765900691396e-16,8.661153180137863e-16,0.0,0.0,0.0,0.0,0.0,0.0,0.0
0.3112097440132122,0.05592485549132947,0.0,4.33057659006913e-16,8.661153180137867e-16,0.0,0.0,0.0,0.0,0.0,0.0,0.0
0.31176713459950456,0.05722543352601156,0.0,9.84728653385352e-08,2.2977001912324164e-07,0.0,0.0,0.0,0.0,0.0,0.0,0.0
0.3123245251857969,0.05852601156069364,0.0,3.7759282986679465e-16,8.181177980447335e-16,0.0,0.0,0.0,0.0,0.0,0.0,0.0
0.3128819157720892,0.059640792733278276,0.0,1.1179442919252443e-07,2.235888583850635e-07,0.0,0.0,0.0,0.0,0.0,0.0,0.0
0.31343930635838146,0.06075557390586292,0.0,2.1337458920668325e-16,5.120990140960341e-16,0.0,0.0,0.0,0.0,0.0,0.0,0.0
0.3138109000825764,0.06187035507844756,0.0,7.905021427646444e-08,2.3715064282939775e-07,0.0,0.0,0.0,0.0,0.0,0.0,0.0
0.3141824938067712,0.0629851362510322,0.0,1.1374127767006484e-16,4.549651106802891e-16,0.0,0.0,0.0,0.0,0.0,0.0,0.0
0.3143682906688687,0.06409991742361684,0.0,4.109611049978774e-08,2.465766629986927e-07,0.0,0.0,0.0,0.0,0.0,0.0,0.0
0.31455408753096614,0.06521469859620148,0.0,1.137412776700623e-16,4.54965110680235e-16,0.0,0.0,0.0,0.0,0.0,0.0,0.0
0.314925681255161,0.06632947976878613,0.0,1.2271740645678643e-16,5.317754279793936e-16,0.0,0.0,0.0,0.0,0.0,0.0,0.0
0.3151114781172585,0.06763005780346822,0.0,3.5352648142995294e-08,2.47468537000971e-07,0.0,0.0,0.0,0.0,0.0,0.0,0.0
0.3152972749793559,0.06893063583815029,0.0,3.5352648142995294e-08,2.47468537000971e-07,0.0,0.0,0.0,0.0,0.0,0.0,0.0
0.31548307184145336,0.07023121387283238,0.0,3.5352648142995294e-08,2.47468537000971e-07,0.0,0.0,0.0,0.0,0.0,0.0,0.0
0.31566886870355076,0.07153179190751445,0.0,3.535264814299548e-08,2.47468537000971e-07,0.0,0.0,0.0,0.0,0.0,0.0,0.0
0.31585466556564823,0.07283236994219652,0.0,3.5352648142995294e-08,2.47468537000971e-07,0.0,0.0,0.0,0.0,0.0,0.0,0.0
0.31604046242774564,0.07413294797687861,0.0,4.847988715815728e-17,6.787184202143142e-16,0.0,0.0,0.0,0.0,0.0,0.0,0.0
0.31604046242774564,0.07543352601156068,0.0,4.847988715815728e-17,6.787184202143142e-16,0.0,0.0,0.0,0.0,0.0,0.0,0.0
0.31622625928984305,0.07673410404624277,0.0,3.535264814298993e-08,2.474685370009718e-07,0.0,0.0,0.0,0.0,0.0,0.0,0.0
0.31641205615194046,0.07803468208092486,0.0,3.5352648142995294e-08,2.47468537000971e-07,0.0,0.0,0.0,0.0,0.0,0.0,0.0
0.3165978530140379,0.07933526011560693,0.0,4.8479887158164404e-17,6.787184202142075e-16,0.0,0.0,0.0,0.0,0.0,0.0,0.0
0.3165978530140379,0.080635838150289,0.0,5.334828233362419e-21,2.499807791846336e-07,0.0,0.0,0.0,0.0,0.0,0.0,0.0
0.316597853014038,0.08193641618497108,0.0,5.334828233362362e-21,2.499807791846336e-07,0.0,0.0,0.0,0.0,0.0,0.0,0.0
0.316597853014038,0.08323699421965318,0.0,0.0,2.499807791846336e-07,0.0,0.0,0.0,0.0,0.0,0.0,0.0
0.316597853014038,0.08453757225433525,0.0,-4.8479887158164404e-17,6.787184202142075e-16,0.0,0.0,0.0,0.0,0.0,0.0,0.0
0.3164120561519405,0.08583815028901733,0.0,-3.5352648142995115e-08,2.4746853700097104e-07,0.0,0.0,0.0,0.0,0.0,0.0,0.0
0.3162262592898431,0.08713872832369943,0.0,-3.5352648142994924e-08,2.4746853700097104e-07,0.0,0.0,0.0,0.0,0.0,0.0,0.0
0.31604046242774564,0.08843930635838151,0.0,-4.8479887158168176e-17,6.787184202142603e-16,0.0,0.0,0.0,0.0,0.0,0.0,0.0
0.31604046242774564,0.08973988439306357,0.0,-4.8479887158168176e-17,6.787184202142603e-16,0.0,0.0,0.0,0.0,0.0,0.0,0.0
0.3158546655656482,0.09104046242774566,0.0,-3.5352648143000284e-08,2.474685370009703e-07,0.0,0.0,0.0,0.0,0.0,0.0,0.0
0.3156688687035507,0.09234104046242775,0.0,,,,0.0,0.0,0.0,0.0,0.0,0.0
0.3154830718414533,0.09364161849710984,0.0,-3.5352648142995294e-08,2.47468537000971e-07,0.0,0.0,0.0,0.0,0.0,0.0,0.0
0.31529727497935583,0.09494219653179191,0.0,-1.5215976945466986e-16,7.100789241218356e-16,0.0,0.0,0.0,0.0,0.0,0.0,0.0
0.314925681255161,0.09624277456647398,0.0,-6.867520476205716e-08,2.4036321666722186e-07,0.0,0.0,0.0,0.0,0.0,0.0,0.0
0.31455408753096614,0.09754335260115607,0.0,-6.86752047620619e-08,2.403632166672205e-07,0.0,0.0,0.0,0.0,0.0,0.0,0.0
0.31418249380677127,0.09884393063583814,0.0,-6.86752047620619e-08,2.403632166672205e-07,0.0,0.0,0.0,0.0,0.0,0.0,0.0
0.3138109000825764,0.10014450867052023,0.0,-2.759406150353353e-16,7.72633722098928e-16,0.0,0.0,0.0,0.0,0.0,0.0,0.0
0.31325350949628405,0.1014450867052023,0.0,,,,0.0,0.0,0.0,0.0,0.0,0.0
0.31269611890999177,0.10274566473988439,0.0,-3.3119718750677454e-16,6.150804910839811e-16,0.0,0.0,0.0,0.0,0.0,0.0,0.0
0.3119529314616019,0.10386044591246903,0.0,-3.483605759129995e-16,5.971895587079683e-16,0.0,0.0,0.0,0.0,0.0,0.0,0.0
0.31139554087530963,0.10497522708505366,0.0,-3.48360575913029e-16,5.971895587080736e-16,0.0,0.0,0.0,0.0,0.0,0.0,0.0
0.3106523534269199,0.10609000825763831,0.0,-1.3866469936204546e-07,2.0799704904307207e-07,0.0,0.0,0.0,0.0,0.0,0.0,0.0
0.30990916597853013,0.10720478943022295,0.0,-4.226161295318719e-16,5.810971781063317e-16,0.0,0.0,0.0,0.0,0.0,0.0,0.0
0.3091659785301404,0.10813377374071015,0.0,-2.7106802985681075e-16,3.8724004265258715e-16,0.0,0.0,0.0,0.0,0.0,0.0,0.0
0.30860858794384805,0.10906275805119736,0.0,-1.951897278066235e-16,2.509582214656597e-16,0.0,0.0,0.0,0.0,0.0,0.0,0.0
0.3078654004954583,0.10980594549958712,0.0,-1.9518972780663075e-16,2.5095822146565408e-16,0.0,0.0,0.0,0.0,0.0,0.0,0.0
0.3073080099091659,0.11073492981007431,0.0,-1.9518972780665804e-16,2.5095822146569993e-16,0.0,0.0,0.0,0.0,0.0,0.0,0.0
0.3065648224607762,0.11147811725846407,0.0,-2.023141039337445e-16,2.3121611878143157e-16,0.0,0.0,0.0,0.0,0.0,0.0,0.0
0.30600743187448387,0.11222130470685383,0.0,-1.3930293711291183e-16,1.3930293711291032e-16,0.0,0.0,0.0,0.0,0.0,0.0,0.0
0.3052642444260941,0.11277869529314614,0.0,-1.3930293711291183e-16,1.3930293711291032e-16,0.0,0.0,0.0,0.0,0.0,0.0,0.0
0.3047068538398018,0.1135218827415359,0.0,-1.393029371129081e-16,1.3930293711291404e-16,0.0,0.0,0.0,0.0,0.0,0.0,0.0
0.3039636663914121,0.11407927332782823,0.0,-2.3121611878142437e-16,2.0231410393375278e-16,0.0,0.0,0.0,0.0,0.0,0.0,0.0
0.3032204789430223,0.11482246077621801,0.0,-3.5686580916681333e-16,3.172140525927266e-16,0.0,0.0,0.0,0.0,0.0,0.0,0.0
0.30229149463253513,0.11556564822460777,0.0,-1.9520079447039898e-07,1.5616063557632063e-07,0.0,0.0,0.0,0.0,0.0,0.0,0.0
0.3013625103220479,0.11630883567299752,0.0,-5.810971781063727e-16,4.226161295319056e-16,0.0,0.0,0.0,0.0,0.0,0.0,0.0
0.3002477291494633,0.11705202312138728,0.0,-7.098036936820285e-16,5.32352770261517e-16,0.0,0.0,0.0,0.0,0.0,0.0,0.0
0.2991329479768786,0.11798100743187448,0.0,-6.87986805327442e-16,4.762985575343595e-16,0.0,0.0,0.0,0.0,0.0,0.0,0.0
0.2978323699421965,0.11872419488026423,0.0,-2.1704629583847676e-07,1.2402645476484122e-07,0.0,0.0,0.0,0.0,0.0,0.0,0.0
0.29653179190751444,0.11946738232865398,0.0,-8.89507215532196e-16,5.47389055712132e-16,0.0,0.0,0.0,0.0,0.0,0.0,0.0
0.2954170107349298,0.12021056977704374,0.0,-5.971895587081106e-16,3.483605759130707e-16,0.0,0.0,0.0,0.0,0.0,0.0,0.0
0.29430222956234514,0.12076796036333609,0.0,-2.2358885838505945e-07,1.1179442919253252e-07,0.0,0.0,0.0,0.0,0.0,0.0,0.0
0.2931874483897605,0.12132535094962842,0.0,-5.095889096253729e-16,2.7795758706839243e-16,0.0,0.0,0.0,0.0,0.0,0.0,0.0
0.29225846407927336,0.12188274153592073,0.0,-3.1119046978250705e-16,1.5559523489125584e-16,0.0,0.0,0.0,0.0,0.0,0.0,0.0
0.29132947976878615,0.12225433526011562,0.0,-3.1119046978250705e-16,1.5559523489125584e-16,0.0,0.0,0.0,0.0,0.0,0.0,0.0
0.290400495458299,0.12281172584640793,0.0,-2.143534456118619e-07,1.2861206736711715e-07,0.0,0.0,0.0,0.0,0.0,0.0,0.0
0.2894715111478118,0.12336911643270024,0.0,-5.095889096254752e-16,2.779575870684256e-16,0.0,0.0,0.0,0.0,0.0,0.0,0.0
0.28835672997522704,0.12392650701899256,0.0,,,,0.0,0.0,0.0,0.0,0.0,0.0
0.2872419488026424,0.12448389760528487,0.0,-5.971895587081611e-16,3.4836057591308904e-16,0.0,0.0,0.0,0.0,0.0,0.0,0.0
0.28612716763005774,0.12522708505367464,0.0,-6.150804910841274e-16,3.311971875068376e-16,0.0,0.0,0.0,0.0,0.0,0.0,0.0
0.2848265895953757,0.12578447563996695,0.0,-2.2977001912324188e-07,9.847286533853469e-08,0.0,0.0,0.0,0.0,0.0,0.0,0.0
0.2835260115606936,0.1263418662262593,0.0,-2.2977001912324262e-07,9.847286533853291e-08,0.0,0.0,0.0,0.0,0.0,0.0,0.0
0.28222543352601154,0.1268992568125516,0.0,-2.2977001912324188e-07,9.847286533853469e-08,0.0,0.0,0.0,0.0,0.0,0.0,0.0
0.2809248554913295,0.12745664739884394,0.0,-7.72633722098827e-16,2.759406150353036e-16,0.0,0.0,0.0,0.0,0.0,0.0,0.0
0.2796242774566474,0.1278282411230388,0.0,-7.726337220989285e-16,2.7594061503533396e-16,0.0,0.0,0.0,0.0,0.0,0.0,0.0
0.27832369942196533,0.12838563170933115,0.0,-7.726337220989285e-16,2.7594061503533396e-16,0.0,0.0,0.0,0.0,0.0,0.0,0.0
0.27702312138728324,0.12875722543352602,0.0,-2.403632166672206e-07,6.867520476206155e-08,0.0,0.0,0.0,0.0,0.0,0.0,0.0
0.27572254335260116,0.1291288191577209,0.0,-2.403632166672206e-07,6.867520476206155e-08,0.0,0.0,0.0,0.0,0.0,0.0,0.0
0.27442196531791907,0.12950041288191577,0.0,-2.403632166672206e-07,6.867520476206155e-08,0.0,0.0,0.0,0.0,0.0,0.0,0.0
0.273121387283237,0.12987200660611065,0.0,-2.403632166672206e-07,6.867520476206155e-08,0.0,0.0,0.0,0.0,0.0,0.0,0.0
0.2718208092485549,0.13024360033030552,0.0,-2.403632166672199e-07,6.867520476206392e-08,0.0,0.0,0.0,0.0,0.0,0.0,0.0
0.2705202312138728,0.13061519405450042,0.0,-7.100789241216768e-16,1.5215976945465263e-16,0.0,0.0,0.0,0.0,0.0,0.0,0.0
0.2692196531791908,0.13080099091659786,0.0,-2.4746853700097093e-07,3.535264814299585e-08,0.0,0.0,0.0,0.0,0.0,0.0,0.0
0.2679190751445087,0.1309867877786953,0.0,-7.100789241217826e-16,1.5215976945466446e-16,0.0,0.0,0.0,0.0,0.0,0.0,0.0
0.2666184971098266,0.13135838150289017,0.0,-2.403632166672206e-07,6.867520476206155e-08,0.0,0.0,0.0,0.0,0.0,0.0,0.0
0.2653179190751445,0.13172997522708504,0.0,-7.100789241217826e-16,1.5215976945466446e-16,0.0,0.0,0.0,0.0,0.0,0.0,0.0
0.2640173410404624,0.13191577208918248,0.0,-2.4746853700097114e-07,3.535264814299437e-08,0.0,0.0,0.0,0.0,0.0,0.0,0.0
0.2627167630057803,0.13210156895127992,0.0,-7.100789241217309e-16,1.5215976945465336e-16,0.0,0.0,0.0,0.0,0.0,0.0,0.0
0.26141618497109825,0.1324731626754748,0.0,-2.4036321666721953e-07,6.867520476206528e-08,0.0,0.0,0.0,0.0,0.0,0.0,0.0
0.26011560693641617,0.1328447563996697,0.0,-2.403632166672199e-07,6.867520476206392e-08,0.0,0.0,0.0,0.0,0.0,0.0,0.0
0.2588150289017341,0.13321635012386457,0.0,-7.100789241217302e-16,1.5215976945465647e-16,0.0,0.0,0.0,0.0,0.0,0.0,0.0
0.25751445086705205,0.133402146985962,0.0,-7.100789241216768e-16,1.5215976945465263e-16,0.0,0.0,0.0,0.0,0.0,0.0,0.0
0.25621387283236996,0.1337737407101569,0.0,-2.403632166672199e-07,6.867520476206392e-08,0.0,0.0,0.0,0.0,0.0,0.0,0.0
0.2549132947976879,0.13414533443435178,0.0,-2.403632166672206e-07,6.867520476206155e-08,0.0,0.0,0.0,0.0,0.0,0.0,0.0
0.2536127167630058,0.13451692815854666,0.0,-7.100789241217826e-16,1.5215976945466446e-16,0.0,0.0,0.0,0.0,0.0,0.0,0.0
0.2523121387283237,0.1347027250206441,0.0,-2.4746853700097104e-07,3.5352648142995115e-08,0.0,0.0,0.0,0.0,0.0,0.0,0.0
0.2510115606936416,0.13488852188274153,0.0,-2.4746853700097067e-07,3.5352648142997696e-08,0.0,0.0,0.0,0.0,0.0,0.0,0.0
0.24971098265895952,0.135074318744839,0.0,,,,0.0,0.0,0.0,0.0,0.0,0.0
0.24841040462427744,0.1352601156069364,0.0,-6.787184202143142e-16,4.847988715815754e-17,0.0,0.0,0.0,0.0,0.0,0.0,0.0
0.24710982658959538,0.1352601156069364,0.0,-2.499807791846336e-07,0.0,0.0,0.0,0.0,0.0,0.0,0.0,0.0
0.24580924855491332,0.1352601156069364,0.0,-2.499807791846336e-07,0.0,0.0,0.0,0.0,0.0,0.0,0.0,0.0
0.2445086705202312,0.1352601156069364,0.0,-2.499807791846336e-07,0.0,0.0,0.0,0.0,0.0,0.0,0.0,0.0
0.24320809248554912,0.1352601156069364,0.0,-6.787184202142603e-16,4.8479887158167147e-17,0.0,0.0,0.0,0.0,0.0,0.0,0.0
0.241907514450867,0.13544591246903387,0.0,-2.4746853700097104e-07,3.5352648142995115e-08,0.0,0.0,0.0,0.0,0.0,0.0,0.0
0.24060693641618494,0.13563170933113128,0.0,-2.47468537000971e-07,3.535264814299548e-08,0.0,0.0,0.0,0.0,0.0,0.0,0.0
0.23930635838150285,0.13581750619322874,0.0,-2.47468537000971e-07,3.535264814299548e-08,0.0,0.0,0.0,0.0,0.0,0.0,0.0
0.2380057803468208,0.13600330305532615,0.0,-2.4746853700097093e-07,3.535264814299585e-08,0.0,0.0,0.0,0.0,0.0,0.0,0.0
